8774
8422
7974
7622
7394
7286
7222
7134
7046
6966
6918
6886
6854
6854
6918
6886
6782
6710
6646
6646
6838
6982
7110
7014
6902
6790
6654
6534
6390
6262
6182
6134
6070
6014
5918
5798
5686
5574
5494
5414
5350
5246
4990
4606
4310
4094
4030
3870
3710
3614
3502
3450
3454
3486
3534
3574
3582
3582
3550
3478
3422
3374
3310
3230
3118
3102
3166
3246
3310
3358
3358
3326
3246
3190
3070
2942
2654
2574
2542
2510
2478
2462
2494
2522
2558
2602
2646
2670
2686
2702
2718
2734
2750
2782
2766
2774
2794
2814
2878
2910
2940
2958
2966
2958
2974
2990
2990
3006
3062
3070
3114
3118
3134
3134
3114
3070
3070
3038
3030
3006
2998
2998
3006
3022
3006
3022
3006
3022
3022
3054
3118
3166
3230
3262
3294
3318
3358
3390
3438
3478
3518
3542
3574
3582
3614
3638
3670
3678
3702
3710
3738
3758
3766
3798
3806
3822
3838
3870
3934
4014
4078
4150
4190
4222
4254
4286
4310
4330
4350
4350
4374
4382
4398
4398
4382
4382
4382
4398
4398
4414
4398
4398
4382
4398
4430
4510
4590
4662
4702
4734
4758
4782
4790
4830
4846
4886
4894
4910
4894
4862
4846
4814
4798
4782
4766
4758
4734
4734
4734
4734
4726
4734
4734
4718
4726
4734
4778
4830
4894
4926
4958
4982
4990
5022
5038
5054
5078
5086
5102
5110
5118
5118
5118
5118
5118
5118
5118
5150
5150
5150
5150
5166
5166
5174
5182
5182
5214
5262
5326
5374
5406
5438
5462
5486
5502
5534
5558
5566
5582
5598
5598
5614
5630
5622
5630
5630
5614
5614
5614
5614
5614
5622
5614
5614
5598
5630
5694
5726
5790
5806
5846
5854
5886
5886
5918
5934
5950
5974
5982
5982
5982
5982
5998
6006
5998
5998
5982
5982
5982
5982
5966
5950
5934
5934
5918
5886
5878
5870
5854
5854
5870
5918
5950
5982
5998
6014
6038
6014
6062
6078
6078
6094
6110
6102
6110
6094
6078
6078
6078
6078
6078
6062
6062
6062
6038
6014
6014
6006
5998
5982
5982
6010
6062
6110
6126
6142
6142
6142
6206
6222
6238
6238
6254
6254
6254
6238
6254
6254
6238
6238
6230
6222
6206
6206
6142
6142
6142
6142
6142
6126
6110
6078
6094
6126
6142
6206
6238
6254
6270
6270
6294
6302
6334
6318
6302
6294
6270
6254
6238
6206
6142
6142
6110
6102
6142
6142
6206
6238
6254
6270
6270
6270
6270
6302
6318
6318
6302
6302
6302
6270
6270
6270
6270
6254
6254
6238
6222
6198
6142
6142
6142
6142
6126
6094
6078
6070
6046
6046
6070
6110
6126
6142
6142
6142
6142
6142
6142
6142
6142
6142
6142
6142
6142
6142
6142
6142
6134
6110
6102
6094
6078
6062
6062
6046
6014
6014
5998
5998
5982
5966
5950
5950
5918
5854
5694
5406
5118
4862
4694
4502
4310
4094
3950
3822
3742
3670
3614
3550
3518
3510
3454
3390
3350
3326
3358
3422
3566
3822
4046
4254
4446
4574
4686
4750
4782
4782
4790
4798
4822
4862
4926
4958
5038
5078
5110
5118
5166
5182
5246
5310
5434
5662
5950
6126
6142
6190
6190
6142
6142
6142
6142
6142
6142
6142
6206
6230
6254
6270
6302
6302
6302
6302
6302
6294
6270
6270
6270
6270
6270
6270
6270
6270
6302
6302
6270
6238
6230
6254
6334
6270
6238
6254
6270
6294
6270
6302
6302
6318
6334
6334
6334
6334
6334
6334
6358
6350
6366
6366
6366
6362
6366
6358
6334
6318
6302
6302
6318
6358
6398
6446
6494
6526
6526
6574
6622
6646
6686
6710
6718
6718
6718
6718
6718
6718
6718
6734
6782
6942
7278
7294
7230
7214
7166
7166
7230
7262
7358
7422
7550
7614
7550
7486
7422
7390
7342
7302
7246
7182
7118
7086
7022
6990
6926
6862
6798
6726
6606
6542
6446
6350
6254
6206
6158
6094
6054
5982
5934
5870
5806
5742
5694
5630
5598
5614
5598
5598
5614
5614
5598
5614
5622
5614
5598
5598
5598
5630
5662
5694
5750
5806
5822
5886
5886
5934
5950
5982
6014
6014
6046
6046
6062
6078
6094
6110
6142
6142
6142
6142
6142
6142
6142
6206
6238
6334
6382
6398
6430
6462
6486
6510
6510
6526
6526
6510
6510
6510
6494
6486
6462
6454
6398
6382
6334
6302
6254
6142
6094
6046
6046
5934
5726
5502
5214
4766
4222
3806
3308
2846
2454
2158
2006
1886
1790
1750
1748
1726
1702
1726
1770
1822
1886
1854
1866
1898
2166
2430
2590
2774
2942
3118
3198
3318
3406
3486
3574
3646
3702
3798
3886
3966
4046
4094
4158
4174
4222
4270
4318
4350
4430
4478
4542
4638
4734
4862
4926
5054
5054
4958
4862
4606
4558
4446
4366
4318
4286
4302
4318
4342
4342
4318
4318
4286
4278
4254
4254
4246
4254
4254
4254
4238
4214
4190
4154
4094
4094
4286
4286
4398
4438
4606
4654
4670
4670
4702
4718
4734
4766
4782
4782
4782
4798
4830
4862
4862
4862
4862
4846
4846
4830
4814
4798
4790
4798
4782
4782
4766
4766
4766
4798
4830
4862
4910
4950
4974
4990
5022
5054
5054
5086
5102
5102
5118
5118
5118
5118
5118
5118
1990
1966
2158
2106
1950
1868
1758
1614
1530
1454
1386
1310
1212
1126
1006
902
830
772
734
730
686
638
702
766
798
830
854
862
894
894
918
926
942
974
1006
1022
1054
1086
1086
1134
1166
1206
1214
1278
1342
1406
1470
1534
1598
1662
1710
1774
1838
1886
1934
1982
2046
2094
2142
2198
2238
2334
2462
2654
2846
2942
3006
3070
3134
3230
3294
3358
3438
3486
3566
3630
3734
3838
3950
4030
4094
4182
4254
4318
4414
4478
4542
4638
4702
4766
4830
4862
4958
4990
5054
5118
5182
5246
5310
5366
5406
5470
5526
5566
5614
5678
5758
5846
5950
6014
6078
6142
6238
6318
6382
6446
6526
6590
6654
6718
6774
6830
6846
6910
6910
6910
6878
6878
6846
6830
6814
6814
6846
6862
6878
6894
6910
6910
6902
6910
6910
6910
6910
6910
6910
6894
6878
6878
6862
6846
6846
6830
6830
6806
6806
6766
6766
6742
6718
6710
6686
6686
6718
6750
6766
6766
6774
6766
6766
6774
6782
6782
6702
6558
6462
6382
6366
6350
6350
6334
6302
6302
6318
6358
6398
6398
6430
6446
6494
6526
6582
6558
6558
6526
6518
6494
6510
6494
6510
6486
6478
6494
6550
6574
6590
6638
6654
6622
6638
6622
6622
6622
6614
6622
6590
6614
6590
6590
6590
6590
6590
6582
6574
6574
6558
6582
6606
6622
6622
6622
6638
6638
6638
6638
6654
6654
6646
6654
6638
6646
6638
6622
6622
6622
6614
6590
6590
6590
6590
6590
6590
6590
6574
6558
6574
6574
6590
6618
6638
6654
6654
6654
6654
6686
6710
6718
6718
6718
6718
6718
6718
6718
6718
6718
6718
6718
6734
6734
6734
6734
6734
6742
6734
6766
6782
6846
6910
6910
6910
6958
7006
7022
7038
7070
7062
7086
7070
7102
7102
7102
7102
7094
7102
7102
7102
7102
7102
7102
7102
7102
7102
7134
7166
7230
7262
7286
7294
7326
7342
7358
7382
7406
7406
7422
7422
7422
7422
7422
7422
7422
7422
7406
7406
7390
7390
7390
7390
7390
7358
7358
7350
7342
7390
7422
7454
7486
7486
7518
7534
7534
7550
7582
7518
7454
7390
7342
7278
7222
7158
7086
7022
6966
6894
6838
6782
6710
6654
6586
6510
6398
6326
6270
6222
6166
6126
6070
6014
5966
5886
5838
5758
5686
5622
5550
5502
5450
5390
5326
5262
5198
5150
5078
4990
4894
4798
4726
4654
4590
4510
4430
4342
4254
4206
4142
4086
4030
3982
3918
3870
3798
3734
3702
3694
3678
3678
3678
3678
3694
3694
3694
3678
3678
3670
3670
3662
3646
3646
3646
3630
3630
3630
3646
3630
3626
3606
3582
3582
3606
3606
3582
3582
3582
3582
3574
3566
3550
3550
3542
3518
3518
3518
3510
3502
3502
3482
3486
3478
3486
3518
3550
3582
3614
3630
3646
3662
3678
3678
3694
3694
3678
3694
3694
3678
3678
3678
3678
3678
3678
3646
3646
3646
3638
3630
3622
3614
3614
3614
3630
3674
3694
3710
3742
3742
3774
3798
3822
3822
3830
3838
3822
3830
3822
3806
3806
3798
3798
3790
3774
3774
3758
3758
3742
3726
3726
3710
3710
3710
3726
3774
3822
3838
3870
3870
3878
3886
3870
3886
3918
3950
3998
4014
3998
3966
3934
3918
3902
3886
3870
3838
3806
3806
3790
3774
3774
3822
4022
4078
4078
4086
4094
4094
4062
4014
3966
3926
3870
3822
3758
3702
3646
3582
3550
3502
3454
3406
3350
3294
3246
3198
3150
3102
3070
3102
3146
3166
3190
3190
3190
3190
3190
3182
3198
3182
3182
3178
3166
3150
3126
3134
3118
3116
3094
3070
3070
3062
3054
3054
3038
3022
3022
2998
2974
2974
3006
3054
3070
3118
3134
3134
3158
3162
3178
3190
3198
3198
3198
3198
3182
3190
3182
3166
3158
3134
3134
3118
3102
3070
3070
3054
3054
3006
2990
2986
2966
2926
2958
2990
3030
3062
3062
3070
3066
3062
3066
3070
3070
3066
3062
3054
3022
3022
2998
2942
2894
2830
2796
2734
2702
2654
2606
2558
2518
2478
2430
2414
2366
2366
2382
2414
2422
2430
2422
2422
2406
2410
2410
2414
2422
2398
2398
2390
2390
2382
2366
2358
2350
2350
2330
2302
2302
2286
2270
2254
2238
2222
2234
2270
2326
2358
2390
2414
2422
2414
2430
2462
2470
2486
2494
2478
2478
2494
2486
2478
2474
2462
2454
2446
2430
2430
2422
2390
2378
2366
2362
2330
2334
2366
2410
2462
2494
2518
2522
2538
2542
2558
2558
2590
2588
2598
2582
2590
2582
2558
2558
2558
2558
2526
2526
2518
2490
2474
2454
2430
2422
2410
2382
2390
2410
2470
2518
2542
2554
2558
2574
2582
2590
2614
2618
2622
2622
2622
2622
2614
2590
2582
2558
2558
2558
2542
2526
2510
2478
2474
2446
2430
2398
2382
2390
2422
2462
2510
2526
2542
2542
2542
2558
2558
2558
2582
2582
2558
2558
2558
2558
2550
2542
2542
2526
2510
2494
2478
2462
2430
2398
2414
2446
2494
2558
2558
2574
2586
2590
2606
2614
2622
2622
2634
2634
2638
2622
2606
2606
2606
2606
2582
2582
2582
2522
2462
2430
2390
2350
2326
2302
2302
2318
2350
2366
2390
2390
2398
2390
2390
2398
2398
2398
2398
2398
2390
2390
2378
2378
2366
2366
2346
2346
2346
2326
2326
2302
2298
2270
2254
2222
2214
2198
2190
2222
2282
2326
2346
2350
2358
2366
2378
2390
2406
2426
2430
2430
2446
2446
2454
2446
2446
2422
2422
2414
2390
2390
2386
2366
2332
2302
2302
2282
2334
2358
2382
2390
2390
2398
2410
2414
2422
2430
2430
2430
2430
2414
2422
2410
2410
2398
2390
2382
2378
2366
2350
2334
2302
2294
2270
2254
2286
2318
2364
2382
2398
2410
2414
2414
2430
2430
2446
2430
2446
2446
2430
2430
2430
2414
2398
2398
2398
2382
2366
2358
2350
2318
2318
2302
2286
2282
2326
2382
2414
2462
2486
2494
2516
2526
2542
2558
2558
2574
2582
2590
2598
2582
2582
2582
2558
2558
2550
2542
2518
2510
2494
2478
2470
2430
2414
2398
2422
2542
2586
2618
2638
2654
2670
2678
2702
2708
2710
2686
2710
2702
2686
2678
2670
2654
2646
2622
2606
2582
2558
2550
2526
2510
2478
2462
2446
2414
2414
2430
2494
2542
2558
2582
2582
2590
2606
2622
2622
2646
2638
2646
2654
2646
2646
2622
2622
2606
2588
2602
2590
2558
2542
2542
2518
2494
2478
2454
2430
2414
2430
2486
2526
2558
2582
2582
2590
2598
2590
2602
2606
2622
2618
2614
2614
2606
2602
2590
2558
2558
2550
2542
2526
2510
2494
2478
2474
2446
2422
2474
2522
2558
2586
2586
2590
2586
2606
2590
2582
2582
2554
2542
2582
2618
2638
2666
2710
2814
2906
2986
3050
3118
3150
3166
3198
3242
3326
3422
3518
3582
3626
3662
3678
3742
3774
3798
3822
3838
3862
3870
3870
3886
3894
3902
3902
3902
3902
3894
3882
3862
3838
3838
3822
3830
3886
3934
3966
4014
4022
4046
4054
4078
4078
4094
4094
4142
4138
4142
4142
4094
4094
4094
4094
4094
4094
4078
4062
4046
4046
4030
4022
4014
3998
3998
4054
4094
4150
4174
4182
4182
4174
4174
4190
4182
4174
4158
4142
4094
4094
4078
4062
4030
4010
4014
3982
3966
3934
3918
3886
3838
3838
3838
3882
3918
3934
3950
3950
3958
3934
3934
3950
3966
3958
3934
3934
3918
3902
3886
3870
3838
3830
3806
3798
3774
3758
3742
3710
3694
3694
3742
3774
3774
3798
3806
3806
3806
3806
3818
3806
3806
3798
3798
3774
3750
3742
3742
3726
3710
3694
3670
3662
3638
3626
3582
3582
3566
3550
3582
3622
3630
3638
3646
3662
3646
3646
3646
3646
3646
3646
3638
3630
3614
3606
3582
3582
3566
3550
3542
3518
3498
3470
3454
3434
3390
3374
3366
3370
3390
3414
3422
3438
3434
3422
3422
3438
3422
3446
3438
3438
3434
3414
3422
3414
3406
3390
3374
3374
3374
3350
3326
3326
3310
3310
3286
3262
3258
3246
3230
3246
3278
3294
3326
3350
3358
3358
3358
3358
3358
3374
3382
3374
3382
3374
3374
3370
3366
3358
3358
3350
3326
3326
3318
3294
3294
3286
3262
3246
3246
3246
3262
3294
3326
3358
3374
3370
3382
3374
3390
3406
3406
3418
3414
3422
3422
3438
3438
3414
3422
3422
3406
3422
3414
3406
3390
3382
3374
3358
3382
3478
3510
3542
3550
3574
3574
3582
3582
3614
3638
3646
3662
3678
3694
3694
3678
3646
3630
3610
3582
3566
3542
3518
3486
3454
3438
3390
3374
3358
3350
3374
3418
3446
3454
3482
3498
3502
3510
3550
3550
3582
3566
3578
3562
3550
3566
3566
3550
3542
3534
3518
3510
3502
3486
3478
3482
3454
3446
3438
3422
3414
3422
3446
3502
3534
3566
3582
3582
3614
3630
3646
3662
3678
3678
3694
3694
3694
3678
3678
3662
3646
3630
3622
3614
3582
3578
3566
3550
3542
3518
3510
3518
3566
3582
3614
3614
3614
3614
3614
3630
3614
3582
3574
3550
3550
3518
3518
3502
3486
3454
3454
3434
3422
3390
3390
3382
3390
3430
3434
3446
3446
3454
3454
3438
3438
3446
3454
3438
3422
3434
3434
3438
3438
3422
3446
3422
3390
3382
3342
3306
3286
3258
3246
3214
3182
3134
3118
3070
3030
2990
2958
2910
2878
2806
2730
2654
2582
2478
2366
2262
2134
2030
2044
2078
2094
2154
2262
2346
2390
2430
2430
2446
2446
2430
2398
2378
2382
2318
2302
2294
2286
2284
2266
2250
2230
2206
2174
2158
2134
2122
2094
2014
1998
1962
1940
1882
1846
1822
1782
1750
1646
